#"Step","Potential Energy (kJ/mole)","Kinetic Energy (kJ/mole)","Total Energy (kJ/mole)","Temperature (K)"
100,-39904.38083665483,3909.6149702631737,-35994.76586639166,16.74478214425331
200,-36715.49021165483,7197.028501496752,-29518.46171015808,30.824691244578677
300,-33653.27146165483,10303.948477008846,-23349.322984645987,44.131551005778334
400,-30850.591774154833,13287.111826015462,-17563.47994813937,56.90836426227003
500,-28180.505836654833,15901.082788441723,-12279.42304821311,68.1039358543968
600,-25669.689430404833,18772.556408868637,-6897.133021536196,80.40238482513581
700,-23285.529274154833,21391.62132407946,-1893.9079500753724,91.6197736883441
800,-21108.861305404833,23928.347946625203,2819.48664122037,102.48450972428081
900,-19034.060524154833,26299.16391629097,7265.103392136138,112.6386546255363
1000,-16640.654274154833,28192.90066917916,11552.246395024325,120.74948129436906
1100,-14953.771461654833,30580.23238829081,15626.460926635977,130.9743627332437
1200,-13084.537086654833,32446.288701658603,19361.75161500377,138.96663477893543
1300,-11230.396461654833,34212.84882674506,22982.452365090227,146.53276716391204
1400,-9796.998024154833,36223.75353915361,26426.755514998775,155.14542124321306
1500,-8225.662086654833,37854.510866406024,29628.84877975119,162.12991367601862
1600,-6442.333961654833,39234.23254457372,32791.89858291889,168.03922676601493
1700,-5445.802711654833,41173.35154777905,35727.54883612422,176.34442446640873
1800,-3969.107399154833,42388.85347096389,38419.74607180906,181.55038849469796
1900,-2792.287086654833,43771.60602011881,40979.318933463976,187.4726827285599
2000,-1378.1933366548328,44851.67375639686,43473.48041974203,192.09858555596682
2100,-697.2402116548328,46353.7389722052,45656.49876055037,198.53189292676362
2200,639.6504133451672,47508.362364689354,48148.01277803452,203.47711574611054
2300,1656.8769758451672,48628.41423618514,50285.29121203031,208.2742696144869
2400,2990.291038345167,49663.92083743587,52654.21187578104,212.70931822637425
2500,3925.580100845167,50749.16430917126,54674.74441001643,217.357388597984
2600,4516.181663345167,52152.52455827163,56668.7062216168,223.3679450900748
2700,5770.166038345167,52584.971401232295,58355.13743957746,225.22010399304193
2800,6258.697288345167,53734.07422861591,59992.771516961075,230.14168237153604
2900,6872.212913345167,54732.579560701386,61604.79247404655,234.41825548239692
3000,7430.041038345167,55551.34122556681,62981.382263911975,237.92499100763837
3100,8188.634788345167,56160.49862175807,64349.13341010324,240.53399674563732
3200,8911.384788345167,56794.123242586385,65705.50803093155,243.2477949886114
3300,9267.548850845167,57581.21219302341,66848.76104386858,246.6188770781425
3400,9876.923850845167,58111.803728567436,67988.7275794126,248.89138721989477
3500,10720.869163345167,58684.459037065506,69405.32820041067,251.3440554385007
3600,11325.947288345167,59075.2296779193,70401.17696626447,253.01771622076092
3700,11816.892600845167,59889.75571303326,71706.64831387842,256.5063106507867
3800,11885.189475845167,60585.8564101276,72471.04588597277,259.4876923499986
3900,12709.837913345167,60744.788529328536,73454.6264426737,260.1683946012398
4000,12141.939475845167,62007.458881834405,74149.39835767957,265.57637982063727
4100,12924.619163345167,62072.496371039655,74997.11553438482,265.8549337437817
4200,13284.884788345167,62545.88944205828,75830.77423040345,267.88246430704646
4300,13735.955100845167,62575.818834964186,76311.77393580935,268.0106511407196
4400,13863.205100845167,63126.88971940242,76990.09482024758,270.37087381639094
4500,14343.923850845167,63183.18755603151,77527.11140687668,270.6119960283522
4600,14470.244163345167,63659.50855045952,78129.75271380469,272.65206681360763
4700,15125.087913345167,63830.41854389338,78955.50645723855,273.3840699975767
4800,15261.572288345167,64141.75271444011,79403.32500278528,274.7175063844125
4900,15011.353538345167,64933.874754605815,79945.22829295098,278.11014507009446
5000,15774.306663345167,64876.91081206896,80651.21747541413,277.86616994335884
5100,15885.619163345167,65354.60950237233,81240.2286657175,279.912141365242
5200,15887.361350845167,65894.76667958312,81782.12803042828,282.2256209085845
5300,16189.650413345167,66488.89641342801,82678.54682677318,284.77026354841615
5400,16507.134788345167,66749.03900448303,83256.1737928282,285.88444769360444
5500,17052.759788345167,66502.58409197873,83555.3438803239,284.82888752984036
5600,16998.642600845167,66739.6458106807,83738.28841152586,285.8442168818608
5700,17724.509788345167,66287.12534164498,84011.63512999014,283.9060831455588
5800,17444.791038345167,66744.69485714659,84189.48589549176,285.865841820314
5900,17528.884788345167,67038.71397360251,84567.59876194768,287.1251182679302
6000,17490.166038345167,67734.67229158687,85224.83832993204,290.1058901610112
6100,18243.025413345167,67603.00402018637,85846.02943353154,289.5419582810994
6200,18133.025413345167,67857.96201020991,85990.98742355508,290.6339369110548
6300,18765.455100845167,67426.71966087702,86192.17476172218,288.7869368238648
6400,18512.494163345167,67861.90568481758,86374.39984816275,290.6508275697655
6500,18650.916038345167,68059.23442812846,86710.15046647363,291.4959815920087
6600,18142.009788345167,68692.1614596122,86834.17124795736,294.20679207744394
6700,18399.697288345167,68633.50174312014,87033.19903146531,293.9555539937006
6800,18528.978538345167,68680.98555066268,87209.96408900784,294.1589259417638
6900,19081.361350845167,68486.37795591727,87567.73930676244,293.32542653007886
7000,18848.744163345167,68652.29102199757,87501.03518534274,294.0360280004361
7100,18873.306663345167,68867.04575671908,87740.35242006424,294.95581710363683
7200,19360.119163345167,68502.51360095921,87862.63276430438,293.39453509013896
7300,19278.892600845167,68966.26925472077,88245.16185556594,295.3807888387736
7400,19469.814475845167,68764.48562826216,88234.30010410733,294.5165546645579
7500,18558.392600845167,69852.20777418607,88410.60037503124,299.17524113509523
7600,19209.345725845167,68930.38430822216,88139.73003406732,295.2270945195253
7700,18753.025413345167,69265.8802447198,88018.90565806496,296.6640151395005
7800,19068.353538345167,68868.6032044855,87936.95674283066,294.9624876130727
7900,19220.431663345167,68707.15705817752,87927.58872152268,294.2710178472471
8000,19444.439475845167,68705.13982915622,88149.57930500139,294.26237810631255
8100,19241.611350845167,69179.09035676759,88420.70170761275,296.29229624208034
8200,19152.103538345167,69447.37445944035,88599.47799778552,297.44135027583843
8300,19521.431663345167,69284.97036089096,88806.40202423613,296.7457776247647
8400,19377.962913345167,69545.78649174515,88923.74940509032,297.86284652389634
8500,19592.876975845167,69301.12185768178,88893.99883352694,296.81495407746473
8600,19187.119163345167,69736.52685607038,88923.64601941555,298.6797826853943
8700,19491.673850845167,69181.74751837132,88673.42136921649,296.303676798098
8800,19098.564475845167,69709.81542203203,88808.3798978772,298.56537828825157
8900,19852.447288345167,69128.29698029044,88980.74426863561,296.07474949388387
9000,19578.306663345167,69508.49787611119,89086.80453945635,297.70314032520395
9100,19781.705100845167,68908.74083876051,88690.44593960568,295.13439608662645
9200,19080.822288345167,69923.34071146557,89004.16299981074,299.4799017083449
9300,19168.603538345167,69616.11430825456,88784.71784659973,298.1640587852285
9400,19142.267600845167,69603.77418033854,88746.04178118371,298.111206329128
9500,19429.728538345167,69327.28069886356,88757.00923720872,296.92699173336354
9600,19358.072288345167,69278.54993268335,88636.62222102852,296.71827909295865
9700,19750.353538345167,68854.43813717295,88604.79167551812,294.9018189876425
9800,19268.619163345167,69453.31623141002,88721.93539475519,297.4667987350702
9900,18680.431663345167,69929.9502180724,88610.38188141756,299.50821005815794
10000,19103.283225845167,69680.70436613215,88783.98759197732,298.44069637130065
10100,19258.837913345167,69816.05344771559,89074.89136106076,299.02039306823315
10200,19564.291038345167,69365.77319547572,88930.06423382089,297.0918541238704
10300,19493.447288345167,69571.39973400091,89064.84702234608,297.9725473933791
10400,19133.400413345167,69714.41776958015,88847.81818292532,298.58509002652545
10500,19175.845725845167,69454.84978664946,88630.69551249463,297.47336691341667
10600,19239.322288345167,69695.51614655065,88934.83843489582,298.504134852625
10700,18937.791038345167,70074.51767509244,89012.30871343761,300.12738882419035
10800,19449.494163345167,69659.59314872976,89109.08731207493,298.3502775605247
10900,19010.634788345167,69620.0098131916,88630.64460153677,298.180743134457
11000,19390.759788345167,69605.0318454837,88995.79163382886,298.1165928771707
11100,20150.666038345167,68806.12567879411,88956.79171713928,294.69489794898266
11200,19556.830100845167,69384.22160765436,88941.05170849952,297.17086820714667
11300,19407.150413345167,69920.17908905423,89327.3295023994,299.4663605594331
11400,19804.884788345167,69704.30133590079,89509.18612424596,298.5417615966606
11500,19309.087913345167,70149.51028217422,89458.59819551939,300.44858026569165
11600,19785.259788345167,69676.43104596296,89461.69083430813,298.4223938489781
11700,19731.634788345167,70176.02025245712,89907.65504080229,300.5621217986596
11800,20326.978538345167,69722.17551659624,90049.1540549414,298.61831626100195
11900,19532.720725845167,70815.98860226152,90348.70932810669,303.3030900725688
12000,20367.744163345167,69986.44331494963,90354.1874782948,299.750168564829
12100,19795.197288345167,70591.43202858418,90386.62931692935,302.341319940756
12200,20875.181663345167,69801.30014935881,90676.48181270398,298.95720506410163
12300,20379.322288345167,70404.61420799093,90783.9364963361,301.54118393496225
12400,20566.892600845167,70019.01116520492,90585.90376605009,299.8896558446709
12500,19703.689475845167,71149.9029685501,90853.59244439527,304.73323686729583
12600,19816.048850845167,71040.93309374235,90856.98194458752,304.2665216465334
12700,20006.806663345167,70806.40373253729,90813.21039588246,303.2620383176942
12800,20188.220725845167,70328.34739203192,90516.56811787709,301.21453508903164
12900,20193.533225845167,70270.1846698171,90463.71789566227,300.9654256192215
13000,19957.087913345167,70385.88598492416,90342.97389826932,301.4609714287212
13100,19893.369163345167,70836.26174219325,90729.63090553842,303.38991941871126
13200,20657.486350845167,70309.24430271727,90966.73065356244,301.13271704012163
13300,20006.119163345167,71302.75683964789,91308.87600299306,305.3879061354734
13400,21098.876975845167,70171.95410727692,91270.83108312209,300.54470660158074
13500,20642.431663345167,70973.21176450257,91615.64342784774,303.97647290432616
13600,20721.986350845167,70679.25814001542,91401.24449086058,302.7174769571576
13700,21023.994163345167,70312.81566487625,91336.80982822142,301.1480130940209
13800,21030.720725845167,70214.07009140868,91244.79081725384,300.7250882975894
13900,20351.025413345167,71020.98155905749,91372.00697240265,304.18106972753816
14000,20474.806663345167,70948.85804916592,91423.66471251109,303.872166556817
14100,20303.306663345167,71383.65928655793,91686.9659499031,305.73440927165166
14200,21021.720725845167,70819.3944874932,91841.11521333837,303.317677392969
14300,21116.423850845167,70676.75953724748,91793.18338809264,302.70677550462773
14400,21066.244163345167,70669.31471715798,91735.55888050314,302.674889528272
14500,21353.900413345167,70465.06373027439,91818.96414361955,301.8000877116921
14600,20859.259788345167,70938.81011246308,91798.06990080824,303.82913149777204
14700,21368.947288345167,70523.15291731269,91892.10020565786,302.04888223219893
14800,21025.884788345167,70763.71247706027,91789.59726540543,303.0791927490475
14900,20847.072288345167,70876.45312108053,91723.5254094257,303.5620580790815
15000,21069.025413345167,70396.37067513983,91465.396088485,301.5058770920274
15100,21320.306663345167,70443.69638512377,91764.00304846893,301.7085719122413
15200,20876.291038345167,70752.00470437924,91628.29574272441,303.0290486544424
15300,21025.017600845167,70547.61437188461,91572.63197272978,302.15365002413085
15400,20788.478538345167,70391.34715954494,91179.8256978901,301.4843615016497
15500,20835.111350845167,70345.39622850437,91180.50757934953,301.2875548249175
15600,20766.470725845167,70165.11916891311,90931.58989475828,300.51543273324796
15700,20246.986350845167,70491.45180249866,90738.43815334383,301.9131071583545
15800,20532.830100845167,70331.04771433678,90863.87781518194,301.2261005012417
15900,20256.259788345167,71018.41193323514,91274.67172158031,304.17006408506063
16000,20861.947288345167,70298.99722924258,91160.94451758775,301.08882908331395
16100,20161.759788345167,70977.20449044654,91138.96427879171,303.9935736486711
16200,20163.642600845167,70645.65468010446,90809.29728094963,302.57355418732425
16300,20593.001975845167,70226.8199228649,90819.82189871007,300.77969550360183
16400,20308.501975845167,70494.69003551424,90803.19201135941,301.92697642854876
16500,20362.876975845167,70660.10335487383,91022.980330719,302.635437496327
16600,20794.916038345167,70310.89466011385,91105.81069845901,301.13978547915616
16700,20424.791038345167,70804.70273194881,91229.49377029398,303.25475297514816
16800,20784.572288345167,70226.77716386179,91011.34945220695,300.77951236787175
16900,20612.470725845167,70248.74628320243,90861.2170090476,300.87360555097507
17000,20276.267600845167,70611.61109073868,90887.87869158384,302.42774635415543
17100,20730.205100845167,70063.4877024279,90793.69280327306,300.0801477299318
17200,19988.533225845167,71084.1899309298,91072.72315677497,304.45178958735687
17300,20406.728538345167,70597.50400915695,91004.23254750212,302.36732608014535
17400,20400.330100845167,70554.91139101662,90955.24149186179,302.1849029727197
17500,20881.400413345167,70153.95502759982,91035.35544094499,300.4676169980565
17600,21050.525413345167,70372.15553202108,91422.68094536624,301.40216424582655
17700,20303.572288345167,70923.45361323189,91227.02590157706,303.7633599995349
17800,20682.462913345167,70667.28916655667,91349.75207990184,302.66621414622057
17900,20783.267600845167,70370.73407614394,91154.00167698911,301.39607618621676
18000,19931.548850845167,70825.96198781976,90757.51083866492,303.34580583094487
18100,20308.056663345167,69898.89407670381,90206.95074004898,299.3751973892856
18200,20604.634788345167,69865.11378969136,90469.74857803652,299.2305172734439
18300,20660.470725845167,69900.11335015995,90560.58407600512,299.3804195066942
18400,20209.705100845167,70449.26353934593,90658.9686401911,301.732415893125
18500,20523.384788345167,70207.05666912766,90730.44145747283,300.69504998714854
18600,20217.400413345167,70086.59378507175,90303.99419841691,300.1791104981382
18700,20277.947288345167,70186.91709126928,90464.86437961445,300.60879268399185
18800,20266.244163345167,69792.60557202506,90058.84973537023,298.91996640904296
18900,20488.353538345167,69573.4647372337,90061.81827557887,297.98139175005446
19000,19067.369163345167,70645.920803454,89713.28996679917,302.57469398690694
19100,20134.705100845167,69634.59097790858,89769.29607875374,298.243193894558
19200,19850.822288345167,69915.27840933576,89766.10069768093,299.44537107201074
19300,19664.783225845167,70120.47454599058,89785.25777183575,300.32422094118243
19400,19473.806663345167,70062.16050504846,89535.96716839363,300.07446337708626
19500,19507.455100845167,69994.89227157063,89502.3473724158,299.7863552325804
19600,19759.736350845167,69648.19914692244,89407.93549776761,298.30147733864453
19700,19334.181663345167,69820.10227524652,89154.28393859169,299.0377340942576
19800,19562.236350845167,69521.5469877941,89083.78333863927,297.7590293408662
19900,19458.572288345167,69626.1989171562,89084.77120550137,298.20725091037446
20000,19409.650413345167,69586.08281986363,88995.7332332088,298.0354346791724
20100,19923.548850845167,69107.39217541134,89030.9410262565,295.9852147427303
20200,20293.970725845167,68784.54935663217,89078.52008247733,294.60248710627206
20300,18932.650413345167,69892.13284000196,88824.78325334712,299.3462391833089
20400,19063.228538345167,69789.97558258194,88853.20412092711,298.9087022307027
20500,19706.228538345167,69136.49438251508,88842.72292086025,296.10985876051103
20600,19876.353538345167,68940.57992193988,88816.93346028504,295.27076207549396
20700,19392.345725845167,69462.13276170287,88854.47848754804,297.50455971157174
20800,19672.509788345167,69386.82601158507,89059.33579993024,297.1820228033837
20900,19500.314475845167,69758.1336395315,89258.44811537667,298.7723239930796
21000,19913.181663345167,69544.23566535843,89457.4173287036,297.8562043736625
21100,20113.291038345167,69096.82068353519,89210.11172188036,295.93993731010534
21200,19822.384788345167,69730.69479911658,89553.07958746175,298.6548041328035
21300,19595.158225845167,69812.54312342312,89407.70134926829,299.0053584379741
21400,19443.556663345167,70128.6573932711,89572.21405661627,300.35926786935164
21500,19665.650413345167,69809.03722777124,89474.68764111641,298.9903427754708
21600,19368.712913345167,70282.46360784466,89651.17652118983,301.0180160005757
21700,19696.986350845167,69982.6031435657,89679.58949441087,299.73372120781056
21800,20130.291038345167,69585.80773735582,89716.09877570099,298.0342565077412
21900,19840.509788345167,69925.68395610224,89766.1937444474,299.48993776592357
22000,19842.330100845167,69908.09759283252,89750.42769367769,299.4146158163452
22100,19469.853538345167,70381.37391458894,89851.22745293411,301.44164634546945
22200,20051.080100845167,69394.64529716154,89445.7253980067,297.21551260595953
22300,19114.501975845167,70307.1529029049,89421.65487875007,301.12375962756283
22400,19604.650413345167,69945.12800244475,89549.77841578992,299.5732161251698
22500,19633.400413345167,70039.79075067397,89673.19116401914,299.9786542842548
22600,19585.697288345167,70063.95249709417,89649.64978543934,300.0821384337448
22700,20028.962913345167,69870.73647375824,89899.6993871034,299.25459908724963
22800,20130.103538345167,69922.24876553565,90052.35230388082,299.47522493151433
22900,19591.900413345167,70290.22885589383,89882.129269239,301.05127436178736
23000,19763.025413345167,69969.65480507165,89732.68021841682,299.6782638011702
23100,19472.470725845167,70293.48758928431,89765.95831512948,301.06523143456945
23200,19694.431663345167,69734.5390844366,89428.97074778177,298.67126910970626
23300,20518.970725845167,69308.63142600842,89827.60215185359,296.84711736888437
23400,20290.775413345167,69835.76146969199,90126.53688303716,299.1048020284502
23500,20640.197288345167,69738.3873394404,90378.58462778557,298.68775108866436
23600,19797.001975845167,70308.0500319819,90105.05200782706,301.12760200873436
23700,19741.744163345167,70757.23595463933,90498.9801179845,303.0514539671429
23800,19714.587913345167,70610.78942099039,90325.37733433556,302.42422716338234
23900,20157.259788345167,70311.44930127729,90468.70908962245,301.14216099324665
24000,19560.134788345167,70597.86134437658,90157.99613272175,302.3688565378632
24100,20070.267600845167,70095.28938903939,90165.55698988456,300.2163535502439
24200,20202.244163345167,69939.72660530359,90141.97076864875,299.55008207767634
24300,20195.041038345167,70341.71429543104,90536.75533377621,301.27178519858563
24400,20398.845725845167,70018.7448185021,90417.59054434727,299.8885150884718
24500,20680.666038345167,69695.50347942254,90376.1695177677,298.50408059963524
24600,19895.337913345167,70296.70100868144,90192.03892202661,301.0789944286628
24700,19951.017600845167,70029.37127017137,89980.38887101653,299.93402791250224
24800,20155.845725845167,69369.21054985607,89525.05627570124,297.1065762258394
24900,19389.798850845167,70365.20241532521,89755.00126617038,301.37238422268325
25000,19766.619163345167,70298.29364612605,90064.91280947122,301.08581565460133
25100,20270.275413345167,69792.43189208268,90062.70730542784,298.9192225422376
25200,20169.134788345167,69838.09381630598,90007.22860465114,299.114791410073
