#"Step","Potential Energy (kJ/mole)","Kinetic Energy (kJ/mole)","Total Energy (kJ/mole)","Temperature (K)"
100,-39910.28708665483,3926.722567080884,-35983.56451957395,16.818053549213424
200,-36692.78708665483,7119.590672849707,-29573.196413805126,30.49302698088994
300,-33736.00583665483,10252.021678169083,-23483.98415848575,43.90914983823785
400,-30890.646461654833,13158.239764862112,-17732.40669679272,56.35640848020271
500,-28383.919899154833,16001.052101381763,-12382.86779777307,68.53210189607198
600,-25722.060524154833,18701.44869174424,-7020.611832410592,80.09783226917324
700,-23207.087867904833,21097.101042719674,-2109.9868251851585,90.35835076410615
800,-21097.892555404833,23952.42123090959,2854.5286755047564,102.58761499267803
900,-18913.466774154833,26274.073439013388,7360.606664858555,112.53119274524782
1000,-16781.287086654833,28360.219029148226,11578.931942493393,121.46610160294826
1100,-15013.013649154833,30602.57724345592,15589.563594301086,131.07006518339045
1200,-12888.427711654833,32181.548705902882,19293.12099424805,137.83276006556392
1300,-11460.185524154833,34304.44075171114,22844.255227556307,146.92505306454296
1400,-9750.755836654833,36040.79404069483,26290.03820404,154.36181033364366
1500,-7978.380836654833,37878.658502259175,29900.277665604342,162.23333739030642
1600,-6492.974586654833,39607.01596139447,33114.04137473964,169.6358487221749
1700,-4853.951149154833,41013.10638870066,36159.15523954583,175.6580984985454
1800,-3713.583961654833,42757.47649485928,39043.892533204445,183.12919159306767
1900,-2331.224586654833,43966.810822856845,41635.58623620201,188.3087399669893
2000,-1289.7870866548328,45302.473000310594,44012.68591365576,194.02934732855678
2100,119.06447584516718,46502.39418711653,46621.4586629617,199.16857945657034
2200,844.9316633451672,48003.29917008965,48848.23083343482,205.59691757944626
2300,2026.6269758451672,49121.760829966515,51148.38780581168,210.38726061163422
2400,3052.181663345167,50121.37710841476,53173.55877175993,214.66859187769964
2500,3625.908225845167,51184.298872492975,54810.20709833814,219.22105893935432
2600,4808.884788345167,51650.21499021156,56459.09977855673,221.21656590053442
2700,5380.587913345167,53029.45906284219,58410.046976187354,227.12383341808174
2800,6075.619163345167,54197.27330455347,60272.89246789864,232.12555231141192
2900,6893.603538345167,55146.037742433255,62039.64128077842,236.18908642905487
3000,8042.541038345167,55355.924219144974,63398.46525749014,237.08802490619243
3100,8406.587913345167,56360.13259637542,64766.72050972059,241.3890240153262
3200,9067.158225845167,57150.02708316897,66217.18530901414,244.77212214619266
3300,9913.876975845167,57437.130486554,67351.00746239917,246.00177876944636
3400,10238.009788345167,58168.16514308937,68406.17493143454,249.13278173436487
3500,10762.869163345167,58477.684482259676,69240.55364560484,250.45844524426576
3600,10766.080100845167,59680.61362534063,70446.6937261858,255.6105603730115
3700,11496.697288345167,59892.86066341004,71389.55795175521,256.51960907480634
3800,12236.744163345167,60097.68076421553,72334.4249275607,257.39684839193563
3900,12442.275413345167,60657.08139367029,73099.35680701546,259.7927471550682
4000,12555.447288345167,61490.457470848225,74045.90475919339,263.36207583902234
4100,13301.119163345167,61667.132917562965,74968.25208090813,264.1187723137337
4200,13597.939475845167,62360.39367023343,75958.3331460786,267.08799060272713
4300,14069.462913345167,62789.00757868332,76858.47049202849,268.92373314402073
4400,14890.009788345167,62744.85545919789,77634.86524754306,268.7346307317336
4500,14339.150413345167,63953.47294990299,78292.62336324816,273.91110890964194
4600,14655.306663345167,64526.23105290625,79181.53771625142,276.3642173945166
4700,15460.166038345167,64558.051758138,80018.21779648316,276.5005046710987
4800,15723.041038345167,64721.15065641818,80444.19169476334,277.1990531318658
4900,16280.900413345167,64747.290262915194,81028.19067626036,277.3110084060957
5000,16002.072288345167,65414.659855955164,81416.73214430033,280.1693355125118
5100,16481.345725845167,65367.83186690579,81849.17759275096,279.9687724184861
5200,16704.595725845167,65378.16752738599,82082.76325323115,280.0130397912003
5300,16598.986350845167,66252.75984754768,82851.74619839285,283.7588966025576
5400,16828.666038345167,66394.1508689255,83222.81690727067,284.3644707749845
5500,17253.759788345167,66645.80014395807,83899.55993230324,285.4422782622256
5600,17203.189475845167,66653.33449683525,83856.52397268041,285.474547705249
5700,17572.291038345167,66936.59504641593,84508.88608476109,286.6877454827454
5800,17887.119163345167,66762.86582130556,84649.98498465073,285.94366760073154
5900,17952.892600845167,67096.6414164789,85049.53401732407,287.373220042278
6000,17653.837913345167,67300.12841662357,84953.96632996874,288.24474972295667
6100,17938.689475845167,67202.79670618474,85141.48618202991,287.82788046615724
6200,18000.080100845167,67348.71583724371,85348.79593808888,288.4528484179493
6300,18016.025413345167,67745.24693204556,85761.27234539072,290.1511810789357
6400,17610.923850845167,68140.54753239872,85751.47138324389,291.84424356328583
6500,18212.923850845167,68011.56348408945,86224.48733493462,291.291808143059
6600,18715.587913345167,67738.13156557223,86453.7194789174,290.1207061440946
6700,18717.439475845167,67793.99200736638,86511.43148321155,290.3599550050283
6800,18870.126975845167,67674.31284999405,86544.43982583922,289.84737219760353
6900,18520.939475845167,68241.32147268578,86762.26094853095,292.27585580356003
7000,18820.556663345167,68250.50425181258,87071.06091515775,292.3151854145643
7100,19135.009788345167,68208.81405742606,87343.82384577123,292.1366273652772
7200,18723.931663345167,68782.32099262811,87506.25265597328,294.5929430795406
7300,19376.267600845167,68294.75383975264,87671.0214405978,292.50470528178016
7400,19426.759788345167,68727.2083506789,88153.96813902407,294.3568970264502
7500,18997.947288345167,69252.29590383172,88250.24319217689,296.6058337506747
7600,19599.673850845167,68935.6196704309,88535.29352127606,295.24951744359794
7700,19426.314475845167,69549.57579046022,88975.89026630539,297.87907599455934
7800,19791.111350845167,69305.92808116204,89097.03943200721,296.8355390112052
7900,19976.369163345167,69339.04313006205,89315.41229340722,296.97736992901804
8000,20049.619163345167,69217.30643097218,89266.92559431735,296.45597472239916
8100,19502.970725845167,69862.65195571136,89365.62268155653,299.21997330070394
8200,20195.650413345167,69479.57054136787,89675.22095471303,297.579245281325
8300,19997.205100845167,70129.81939410977,90127.02449495494,300.3642446895866
8400,20533.791038345167,69736.93055059505,90270.72158894021,298.68151169884436
8500,20153.634788345167,70311.28440576885,90464.91919411402,301.14145474994996
8600,20595.353538345167,69931.1424295482,90526.49596789337,299.5133162697885
8700,20170.259788345167,70078.7449372895,90249.00472563467,300.14549408138186
8800,20635.025413345167,69813.97588484338,90449.00129818855,299.0114949189395
8900,20229.119163345167,70499.94210756663,90729.0612709118,301.94947092045965
9000,20826.759788345167,70156.94435502496,90983.70414337012,300.4804202118953
9100,20847.353538345167,70149.0884540854,90996.44199243057,300.44677358664444
9200,20582.876975845167,70472.52228428354,91055.3992601287,301.8320325100787
9300,20457.251975845167,70486.51280105533,90943.7647769005,301.89195353995274
9400,20260.173850845167,70346.36356022488,90606.53741107005,301.2916978822376
9500,20282.337913345167,70312.67971796496,90595.01763131013,301.14743083683436
9600,20411.462913345167,70191.90077466983,90603.363688015,300.63013767408756
9700,20157.767600845167,70500.1379547678,90657.90555561296,301.95030972907426
9800,20016.759788345167,70480.78618594306,90497.54597428822,301.8674265921053
9900,19466.392600845167,71041.74556077737,90508.13816162254,304.27000142231805
10000,20341.384788345167,70107.51739407051,90448.90218241568,300.2687257868612
10100,20239.111350845167,70227.8808562113,90466.99220705646,300.7842394543208
10200,20566.041038345167,69819.66748916206,90385.70852750723,299.03587191644243
10300,19877.212913345167,70267.46170870261,90144.67462204778,300.9537632455616
10400,19839.978538345167,70187.59318518452,90027.57172352969,300.61168837714985
10500,19772.392600845167,70286.19873486692,90058.59133571209,301.03401345524696
10600,19991.087913345167,69844.4798732968,89835.56778664197,299.1421427308259
10700,20096.166038345167,69698.86027812352,89795.02631646869,298.5184576836647
10800,19721.978538345167,70268.81289067725,89990.79142902241,300.95955032382244
10900,20495.337913345167,69521.8730135184,90017.21092686357,297.76042570080665
11000,20323.447288345167,69734.74808930513,90058.19537765029,298.67216427227777
11100,20068.900413345167,69992.89521737304,90061.7956307182,299.77780189990614
11200,19582.322288345167,70435.93863435718,90018.26092270235,301.67534566170156
11300,19976.392600845167,70218.13051668764,90194.52311753281,300.7424789964757
11400,19758.767600845167,70361.41212757118,90120.17972841635,301.35615051599143
11500,20235.955100845167,69838.49458852259,90074.44968936776,299.1165079073515
11600,20245.798850845167,70262.80637155473,90508.6052223999,300.9338245541707
11700,19713.947288345167,70868.25561506441,90582.20290340958,303.52694836791807
11800,20323.830100845167,70141.51192382211,90465.34202466728,300.4143234989419
11900,20070.712913345167,70504.37057885528,90575.08349220044,301.96843795110703
12000,20282.517600845167,70374.49897315493,90657.0165740001,301.41220114499765
12100,19534.048850845167,70835.33632268524,90369.3851735304,303.3859558703384
12200,20264.541038345167,69999.618543386,90264.15958173116,299.80659773535996
12300,20075.048850845167,69836.4824262904,89911.53127713557,299.1078898673468
12400,19747.291038345167,70348.40883551864,90095.6998738638,301.30045774464844
12500,19961.306663345167,70055.08997585066,90016.39663919582,300.0441804791635
12600,19857.025413345167,70291.4720737501,90148.49748709527,301.05659903245686
12700,20264.634788345167,69973.0558758569,90237.69066420206,299.692830501418
12800,19558.962913345167,70436.34908919828,89995.31200254345,301.6771036294162
12900,20092.837913345167,69566.5153172114,89659.35323055656,297.9516275596706
13000,19557.134788345167,70285.87580306588,89843.01059141105,301.0326303465018
13100,19903.392600845167,69942.82159371738,89846.21419456255,299.56333783486014
13200,19898.259788345167,70138.6195906396,90036.87937898477,300.4019357089938
13300,20020.712913345167,69530.41274923272,89551.12566257789,297.79700117312126
13400,19778.916038345167,69715.14295088267,89494.05898922784,298.588195959723
13500,19851.447288345167,69646.84514374612,89498.29243209129,298.2956781772482
13600,19984.236350845167,69890.79327703081,89875.02962787598,299.34050186894655
13700,20516.439475845167,69379.99532465328,89896.43480049845,297.1527671438269
13800,19963.869163345167,70242.55125300726,90206.42041635243,300.84707239316174
13900,20290.322288345167,69451.41646057181,89741.73874891698,297.4586620645664
14000,19920.087913345167,69891.62929178774,89811.71720513291,299.3440824990292
14100,19466.205100845167,70220.76076188055,89686.96586272572,300.75374427018585
14200,19560.181663345167,70063.54144768068,89623.72311102584,300.08037791949164
14300,19686.900413345167,70339.36771033239,90026.26812367755,301.2617348338927
14400,19928.455100845167,69851.44868700532,89779.90378785049,299.17198998387784
14500,20213.166038345167,69587.78130967543,89800.94734802059,298.0427092681253
14600,20533.650413345167,69258.23497623182,89791.88538957699,296.63127064771834
14700,20538.494163345167,69611.81093460415,90150.30509794931,298.1456275446052
14800,20172.712913345167,69953.20312359801,90125.91603694318,299.6078016650576
14900,20383.330100845167,70063.35935557191,90446.68945641708,300.0795980235902
15000,20667.822288345167,69954.42792119738,90622.25020954254,299.61304744223213
15100,20460.564475845167,70284.11561082769,90744.68008667286,301.0250914876155
15200,20118.337913345167,70264.59393628617,90382.93184963134,300.94148064875407
15300,20280.072288345167,70292.72762195859,90572.79991030376,301.0619765137133
15400,20308.369163345167,70103.43216662109,90411.80132996626,300.25122886090537
15500,19917.470725845167,70417.85406901338,90335.32479485855,301.5978899252266
15600,20066.876975845167,70249.68639522418,90316.56337106935,300.877632027013
15700,19731.447288345167,70444.89337621434,90176.34066455951,301.7136985948412
15800,20468.736350845167,70199.22515786137,90667.96150870653,300.661507822252
15900,20609.205100845167,70197.10687985038,90806.31198069555,300.65243529104765
16000,20006.572288345167,70970.93038150389,90977.50266984905,303.9667017985802
16100,19692.853538345167,71159.58104708395,90852.43458542912,304.77468783314714
16200,20269.916038345167,70382.26924287807,90652.18528122324,301.445481013912
16300,21042.009788345167,70028.54854586217,91070.55833420734,299.93050420507143
16400,21613.439475845167,69550.28016514098,91163.71964098615,297.8820928135215
16500,20539.041038345167,70744.67085399432,91283.71189233949,302.9976379585279
16600,20151.548850845167,71013.70530973608,91165.25416058124,304.1499057355233
16700,20315.275413345167,70474.28502884321,90789.56044218838,301.83958230049336
16800,20068.134788345167,70815.70797805674,90883.84276640191,303.3018881661895
16900,20651.869163345167,70305.26382377511,90957.13298712028,301.1156687493761
17000,20439.744163345167,70660.82696090685,91100.57112425202,302.638536682685
17100,20907.431663345167,70246.88331494953,91154.3149782947,300.8656265050143
17200,21142.392600845167,70031.37563271902,91173.76823356419,299.9426125466552
17300,20987.822288345167,69982.69487517094,90970.51716351611,299.73411409195825
17400,20249.369163345167,70572.59885041555,90821.96801376072,302.26065791446547
17500,20772.259788345167,70127.98229190987,90900.24208025503,300.3563764272774
17600,20196.759788345167,70622.94488044921,90819.70466879438,302.4762886891463
17700,20661.494163345167,70201.66333148698,90863.15749483215,300.671950458292
17800,20005.634788345167,70657.66513052024,90663.2999188654,302.62499464302033
17900,20495.431663345167,70194.81247621821,90690.24413956338,300.64260841825734
18000,20207.556663345167,70210.46344502596,90418.02010837113,300.70964112225136
18100,20348.017600845167,70024.56035136501,90372.57795221018,299.91342286879876
18200,19989.033225845167,70428.64611272281,90417.67933856798,301.64411197578147
18300,20474.306663345167,69900.07706054696,90374.38372389213,299.38026407919864
18400,20663.322288345167,69595.91572895763,90259.23801730279,298.0775487804012
18500,19945.923850845167,70076.91071597813,90022.8345668233,300.1376381578454
18600,20048.962913345167,70131.5773938552,90180.54030720037,300.3717741580818
18700,19874.900413345167,69821.03161070263,89695.9320240478,299.0417144145372
18800,19996.025413345167,69603.64237783191,89599.66779117708,298.11064182232195
18900,20211.291038345167,69597.0941288448,89808.38516718996,298.08259583734656
19000,19661.025413345167,70087.46694127482,89748.49235461999,300.1828502040963
19100,20228.244163345167,69618.85369756026,89847.09786090543,298.1757915204163
19200,20107.361350845167,69359.55578004336,89466.91713088853,297.0652250906518
19300,20070.892600845167,69336.76102103118,89407.65362187635,296.9675957136945
19400,19890.033225845167,69588.16547376616,89478.19869961133,298.0443546332203
19500,20056.384788345167,69490.55445693899,89546.93924528416,297.626289114216
19600,19614.994163345167,69556.81096948683,89171.805132832,297.9100640835391
19700,19758.009788345167,69705.80565916933,89463.8154475145,298.5482045752142
19800,19691.994163345167,69662.30825952394,89354.3024228691,298.361906311461
19900,19835.283225845167,69746.36210574396,89581.64533158913,298.7219068112662
20000,19942.947288345167,69390.84246007516,89333.78974842033,297.19922515079435
20100,19160.603538345167,70165.68558904319,89326.28912738836,300.5178586963549
20200,20331.837913345167,69218.90902306931,89550.74693641448,296.46283858386295
20300,19956.181663345167,69939.8941138871,89896.07577723227,299.55079951270756
20400,20311.744163345167,69530.9515448832,89842.69570822836,297.79930882127996
20500,19885.666038345167,70182.39713704336,90068.06317538852,300.58943383423536
20600,20091.150413345167,69780.98124565533,89872.1316590005,298.870179712881
20700,19841.283225845167,69819.54794462677,89660.83117047194,299.03535991021795
20800,20033.494163345167,69506.42185714887,89539.91602049404,297.6942487884374
20900,19687.431663345167,69899.35207098164,89586.7837343268,299.37715896720664
21000,20057.884788345167,69703.46340333391,89761.34819167908,298.5381727526464
21100,20048.720725845167,70021.04658477567,90069.76731062084,299.89837349526914
21200,20092.345725845167,70069.79176772424,90162.1374935694,300.10714788232866
21300,20443.494163345167,69894.67282853159,90338.16699187676,299.35711789001056
21400,20190.814475845167,70140.63644085708,90331.45091670225,300.4105738275211
21500,20316.814475845167,70113.25643196702,90430.07090781219,300.2933059411796
21600,20584.228538345167,70179.06674753642,90763.29528588158,300.57516986011683
21700,20252.697288345167,70293.26902161376,90545.96630995892,301.0642953147584
21800,20587.056663345167,69760.56346443016,90347.62012777533,298.7827308717329
21900,20230.353538345167,70058.26782892272,90288.62136726789,300.0577911435852
22000,20090.056663345167,70072.73017095728,90162.78683430245,300.1197329891394
22100,20282.337913345167,70018.54229666851,90300.88021001368,299.8876476925751
22200,20708.470725845167,69830.02047973266,90538.49120557783,299.080213513496
22300,20452.509788345167,70282.54251109867,90735.05229944384,301.0183539412192
22400,20359.705100845167,70360.33284058375,90720.03794142892,301.3515279570916
22500,20525.986350845167,70378.20296217361,90904.18931301878,301.4280652363862
22600,20648.947288345167,70423.69499584008,91072.64228418525,301.6229064672588
22700,20412.869163345167,70725.84453943046,91138.71370277563,302.917005328883
22800,20535.720725845167,70723.26581328223,91258.98653912739,302.9059607099397
22900,20563.978538345167,70650.37796558603,91214.3565039312,302.59378389971164
23000,21578.103538345167,69715.33379777963,91293.4373361248,298.5890133521611
23100,20817.025413345167,70394.92761548003,91211.9530288252,301.49969650396224
23200,20545.853538345167,70651.40273339022,91197.25627173539,302.5981729543271
23300,20620.158225845167,70368.76120553561,90988.91943138078,301.38762643124437
23400,20952.955100845167,70346.38942200737,91299.34452285254,301.2918086475986
23500,21027.744163345167,70393.53964212118,91421.28380546634,301.49375184913237
23600,21211.658225845167,70065.97867838386,91277.63690422903,300.09081651701865
23700,21153.572288345167,70228.2563501927,91381.82863853787,300.78584768555663
23800,20295.220725845167,70742.58618549048,91037.80691133565,302.98870937599344
23900,20645.197288345167,70759.53444183897,91404.73173018414,303.0612983297495
24000,20224.244163345167,71338.40673667588,91562.65090002105,305.5405937437773
24100,21082.494163345167,70729.14607413416,91811.64023747933,302.93114571860826
24200,21186.806663345167,70718.20533822663,91905.0120015718,302.88428682312554
24300,21089.267600845167,70436.98724576534,91526.2548466105,301.67983683787037
24400,20615.533225845167,70846.4150609728,91461.94828681796,303.43340582652837
24500,20286.259788345167,71199.12574383197,91485.38553217714,304.94405677025287
24600,21245.212913345167,70294.1260997334,91539.33901307857,301.06796615869143
24700,21241.291038345167,70161.61806191038,91402.90910025555,300.500437580408
24800,20750.541038345167,70484.47074769554,91235.0117860407,301.8832074770036
24900,20966.408225845167,70232.07441391802,91198.48263976318,300.80220035603173
25000,21010.626975845167,69914.77975206263,90925.4067279078,299.4432353355082
25100,20571.775413345167,70183.99259254383,90755.768005889,300.5962671298359
25200,20218.642600845167,70574.65983111039,90793.30243195556,302.26948504271235
